#LICA Lamps Spectra Database		
#Website 1: https://guaix.fis.ucm.es/lamps_spectra		
#Website 2: http://carlostapia.es/lamparas/lamps.html		
#Latest update: 2017/12/15		
#Tester: Carlos Eugenio Tapia Ayuga		
#Correct for Electrical Dark: Yes (JAZA2310)		
#Correct for Detector Non-linearity: Yes (JAZA2310)		
#Correct for Flux: Yes		
#Start wavelength (nm): 300		
#End wavelength (nm): 900		
#Steps (nm):	1	
#Locus: D65 sRGB Gamma 1 CIE1931		
#XYZ coordinates: 0.7866	0.7148	0.3125
#xyY coordinates: 0.4337	0.3941	0.7148
#sRGB: 255	116	45
#CCT Lindbloom (K):	3107	
#CCT McCamy (K):	2977	
#CCT Hernández-Andrés (K):	2932	
#Melatonin: 0.341		
#Chlorophyll a: 0.174		
#Chlorophyll b: 0.617		
#Beta Carotene: 0.175		
#Manufacturer: Philips		
#Luminance manufacturer: Unknown		
#Other data: Madrid streetlamp tested in laboratory		
#Begin Processed Spectral Data		
W	S	Column1
389	0.00290552	1
390	0.00028966	0
391	0.00064695	1
392	0.00016038	0
393	0.00093953	1
394	0	0
395	0	1
396	0.00009873	0
397	0.00066487	1
398	0.00100688	0
399	0	1
400	0.00118601	0
401	0	1
402	0.00198557	0
403	0.00066903	1
404	0.0041668	0
405	0.00270029	1
406	0.00356928	0
407	0.00513354	1
408	0.00815182	0
409	0.00651202	1
410	0.00923855	0
411	0.01014281	1
412	0.01131146	0
413	0.01639835	1
414	0.01883299	0
415	0.02462266	1
416	0.02937378	0
417	0.031044	1
418	0.03873536	0
419	0.04884567	1
420	0.05511218	0
421	0.06612662	1
422	0.07561928	0
423	0.09082718	1
424	0.10642263	0
425	0.11853212	1
426	0.13934694	0
427	0.15671495	1
428	0.17302887	0
429	0.19586703	1
430	0.22008671	0
431	0.24081682	1
432	0.26851247	0
433	0.29315609	1
434	0.31311914	0
435	0.33756086	1
436	0.35765263	0
437	0.38263174	1
438	0.40636596	0
439	0.43083906	1
440	0.4506495	0
441	0.47572095	1
442	0.49590881	0
443	0.52792706	1
444	0.54795648	0
445	0.57104028	1
446	0.59191855	0
447	0.61509164	1
448	0.62613427	0
449	0.63902096	1
450	0.61580913	0
451	0.60546151	1
452	0.5758039	0
453	0.54341476	1
454	0.49983177	0
455	0.4577607	1
456	0.41085422	0
457	0.36177665	1
458	0.32200178	0
459	0.28756514	1
460	0.26308398	0
461	0.2416293	1
462	0.22202118	0
463	0.20280174	1
464	0.19153013	0
465	0.17971308	1
466	0.16737349	0
467	0.16061	1
468	0.15150642	0
469	0.13965535	1
470	0.13381709	0
471	0.12363054	1
472	0.11898023	0
473	0.11028213	1
474	0.10344129	0
475	0.09666724	1
476	0.09791866	0
477	0.09026396	1
478	0.08831282	0
479	0.08479173	1
480	0.08489851	0
481	0.08336896	1
482	0.08682382	0
483	0.08415061	1
484	0.08691547	0
485	0.08762463	1
486	0.08932054	0
487	0.09045933	1
488	0.09545999	0
489	0.09602196	1
490	0.10078363	0
491	0.10569431	1
492	0.11211287	0
493	0.11582989	1
494	0.12163525	0
495	0.13101474	1
496	0.13912046	0
497	0.14728061	1
498	0.15635642	0
499	0.16744014	1
500	0.17816617	0
501	0.18668278	1
502	0.19420917	0
503	0.20829785	1
504	0.21594186	0
505	0.23169103	1
506	0.23767843	0
507	0.25140579	1
508	0.25908035	0
509	0.27363088	1
510	0.28555138	0
511	0.29932373	1
512	0.31033067	0
513	0.31816298	1
514	0.33099955	0
515	0.34553605	1
516	0.35393282	0
517	0.36259551	1
518	0.37102395	0
519	0.38513651	1
520	0.3907451	0
521	0.40186021	1
522	0.41198802	0
523	0.42239272	1
524	0.43512236	0
525	0.44547555	1
526	0.44950945	0
527	0.46516948	1
528	0.47063115	0
529	0.47996871	1
530	0.48712351	0
531	0.49334572	1
532	0.50051011	0
533	0.50507432	1
534	0.51154218	0
535	0.52423586	1
536	0.53119598	0
537	0.5415936	1
538	0.54687086	0
539	0.55819163	1
540	0.56089872	0
541	0.5750553	1
542	0.57971213	0
543	0.59365195	1
544	0.59469438	0
545	0.60383878	1
546	0.61421321	0
547	0.62147771	1
548	0.63089289	0
549	0.63808546	1
550	0.64516944	0
551	0.65480472	1
552	0.66448678	0
553	0.68057131	1
554	0.69116361	0
555	0.69576657	1
556	0.71040013	0
557	0.72319046	1
558	0.7405675	0
559	0.73920889	1
560	0.75660106	0
561	0.76397096	1
562	0.77404725	0
563	0.78642683	1
564	0.79504231	0
565	0.80670814	1
566	0.81847215	0
567	0.83029393	1
568	0.8382662	0
569	0.84477127	1
570	0.84765347	0
571	0.86020982	1
572	0.87234042	0
573	0.87984626	1
574	0.8847143	0
575	0.89048924	1
576	0.89948603	0
577	0.91192393	1
578	0.91405003	0
579	0.91935965	1
580	0.92940109	0
581	0.92771588	1
582	0.94110192	0
583	0.94779515	1
584	0.95747833	0
585	0.96703598	1
586	0.97708533	0
587	0.97528445	1
588	0.98223123	0
589	0.97735208	1
590	0.98763584	0
591	0.98541045	1
592	0.98358888	0
593	0.99281465	1
594	0.99415715	0
595	0.99021392	1
596	0.99263677	0
597	0.9874481	1
598	0.99542065	0
599	0.99531942	1
600	1	0
601	0.99975102	1
602	0.99122303	0
603	0.99161531	1
604	0.99113652	0
605	0.96787775	1
606	0.95926019	0
607	0.95188432	1
608	0.9490835	0
609	0.94308527	1
610	0.93554429	0
611	0.93167369	1
612	0.91716662	0
613	0.91748739	1
614	0.91040494	0
615	0.91974332	1
616	0.90693828	0
617	0.90052818	1
618	0.89838515	0
619	0.89520287	1
620	0.88959081	0
621	0.87251108	1
622	0.85313375	0
623	0.85486007	1
624	0.83678719	0
625	0.83015215	1
626	0.814665	0
627	0.80594135	1
628	0.79930617	0
629	0.7766963	1
630	0.77586077	0
631	0.75787636	1
632	0.73806342	0
633	0.73854013	1
634	0.72207013	0
635	0.70823737	1
636	0.69797154	0
637	0.67183044	1
638	0.6692461	0
639	0.65110005	1
640	0.65242242	0
641	0.62555591	1
642	0.61993774	0
643	0.61570846	1
644	0.60200318	0
645	0.58558372	1
646	0.57479868	0
647	0.56783204	1
648	0.55309391	0
649	0.54810395	1
650	0.53059374	0
651	0.52022126	1
652	0.50649306	0
653	0.49490152	1
654	0.48985671	0
655	0.476871	1
656	0.46212593	0
657	0.46120306	1
658	0.4443555	0
659	0.44024244	1
660	0.42696901	0
661	0.41548481	1
662	0.40677518	0
663	0.39110766	1
664	0.38765447	0
665	0.38257578	1
666	0.3674294	0
667	0.3627041	1
668	0.35043089	0
669	0.34532415	1
670	0.33556571	0
671	0.32909021	1
672	0.32191139	0
673	0.31713721	1
674	0.30561843	0
675	0.29910364	1
676	0.28805115	0
677	0.28929465	1
678	0.28285734	0
679	0.2700198	1
680	0.26643442	0
681	0.25220757	1
682	0.2515441	0
683	0.24674562	1
684	0.23823846	0
685	0.22905906	1
686	0.22606453	0
687	0.22082934	1
688	0.21221969	0
689	0.20543287	1
690	0.19614642	0
691	0.19370941	1
692	0.19446232	0
693	0.18829551	1
694	0.18230075	0
695	0.17628488	1
696	0.17295014	0
697	0.16720075	1
698	0.16363119	0
699	0.15834379	1
700	0.15477562	0
701	0.15585818	1